#Parameters = {C_p=2.22e-12; C_p_add=7e-14; L_s=7e-10; R_s=4.8}
#"Frequency / GHz"	"Total RCS [pw] (C_p=2.22e-12) [Magnitude]"
#-------------------------------------------------------------
6.0000000000000	133.14554218499
6.0080160320641	134.12932234040
6.0160320641283	135.18788619490
6.0240480961924	136.31000181697
6.0320641282565	137.38009134961
6.0400801603206	138.43912458658
6.0480961923848	139.43188029425
6.0561122244489	140.30731101938
6.0641282565130	141.06180193109
6.0721442885772	141.69384234723
6.0801603206413	142.25632014568
6.0881763527054	142.66782463342
6.0961923847695	143.05903644859
6.1042084168337	143.43846565678
6.1122244488978	143.80019987701
6.1202404809619	144.23259550629
6.1282565130261	144.78007540384
6.1362725450902	145.37369025113
6.1442885771543	146.11086552951
6.1523046092184	146.96130143335
6.1603206412826	147.85842034320
6.1683366733467	148.81554801056
6.1763527054108	149.81940573400
6.1843687374749	150.72764731024
6.1923847695391	151.59566103073
6.2004008016032	152.35005164491
6.2084168336673	152.94732885384
6.2164328657315	153.37269140476
6.2244488977956	153.63734579320
6.2324649298597	153.78761744192
6.2404809619238	153.75166119733
6.2484969939880	153.65798410596
6.2565130260521	153.52788327613
6.2645290581162	153.35318193977
6.2725450901804	153.22757067387
6.2805611222445	153.20780746173
6.2885771543086	153.21749164517
6.2965931863727	153.37410629825
6.3046092184369	153.63373792073
6.3126252505010	153.97759649230
6.3206412825651	154.37713117616
6.3286573146293	154.83027031356
6.3366733466934	155.33842394711
6.3446893787575	155.79233613043
6.3527054108216	156.27108482546
6.3607214428858	156.77361964876
6.3687374749499	157.25622113595
6.3767535070140	157.83554510811
6.3847695390782	158.57456030957
6.3927855711423	159.47540087938
6.4008016032064	160.70143615524
6.4088176352705	162.33755192539
6.4168336673347	164.40166538448
6.4248496993988	167.03248835270
6.4328657314629	170.29776457815
6.4408817635271	174.12919177023
6.4488977955912	178.62679378732
6.4569138276553	183.72415737198
6.4649298597194	189.33104349611
6.4729458917836	195.35574182737
6.4809619238477	201.69174972430
6.4889779559118	208.25664980718
6.4969939879760	214.76863981446
6.5050100200401	221.21737927222
6.5130260521042	227.43752455955
6.5210420841683	233.24586630097
6.5290581162325	238.61754305951
6.5370741482966	243.54329975929
6.5450901803607	247.82753057750
6.5531062124248	251.65420867955
6.5611222444890	254.97091181966
6.5691382765531	257.85126862274
6.5771543086172	260.31706889580
6.5851703406814	262.55330263805
6.5931863727455	264.59229453450
6.6012024048096	266.50334934856
6.6092184368737	268.44732763260
6.6172344689379	270.35000352425
6.6252505010020	272.33504643413
6.6332665330661	274.36819425307
6.6412825651303	276.58862003389
6.6492985971944	278.72366778144
6.6573146292585	280.99769882642
6.6653306613226	283.23551652468
6.6733466933868	285.44784744667
6.6813627254509	287.51036604542
6.6893787575150	289.52958992894
6.6973947895792	291.39971875905
6.7054108216433	293.12149537916
6.7134268537074	294.77647449882
6.7214428857715	296.26053681700
6.7294589178357	297.67287896078
6.7374749498998	299.01766186519
6.7454909819639	300.45253119411
6.7535070140281	301.77269847869
6.7615230460922	303.23685080529
6.7695390781563	304.78593828613
6.7775551102204	306.36969712476
6.7855711422846	308.05332416823
6.7935871743487	309.91107620809
6.8016032064128	311.69491081314
6.8096192384770	313.62424115394
6.8176352705411	315.55185947804
6.8256513026052	317.47907255668
6.8336673346693	319.30735823984
6.8416833667335	321.14710511141
6.8496993987976	322.90854786843
6.8577154308617	324.57554488829
6.8657314629259	326.25666120159
6.8737474949900	327.80222065402
6.8817635270541	329.33727230630
6.8897795591182	330.81679044076
6.8977955911824	332.43377436605
6.9058116232465	333.89907658749
6.9138276553106	335.54017689126
6.9218436873747	337.19600223387
6.9298597194389	338.93977567921
6.9378757515030	340.65774919173
6.9458917835671	342.50975155340
6.9539078156313	344.37075089698
6.9619238476954	346.24208175535
6.9699398797595	348.18153250953
6.9779559118236	350.03944142459
6.9859719438878	351.87127350828
6.9939879759519	353.64320541192
7.0020040080160	355.47834422709
7.0100200400802	357.10762430613
7.0180360721443	358.79113454696
7.0260521042084	360.45510522886
7.0340681362725	362.02758427504
7.0420841683367	363.60854035012
7.0501002004008	365.29852979669
7.0581162324649	366.84941408453
7.0661322645291	368.54611581870
7.0741482965932	370.26306220383
7.0821643286573	372.02339826696
7.0901803607214	373.74866686670
7.0981963927856	375.56845542409
7.1062124248497	377.39543276409
7.1142284569138	379.18932135018
7.1222444889780	381.06823646297
7.1302605210421	382.82471905603
7.1382765531062	384.58150985430
7.1462925851703	386.24734934750
7.1543086172345	388.02773407169
7.1623246492986	389.55406066894
7.1703406813627	391.20340756497
7.1783567134269	392.77309937910
7.1863727454910	394.36456132855
7.1943887775551	395.84456776438
7.2024048096192	397.43358384045
7.2104208416834	398.99443703875
7.2184368737475	400.57230805220
7.2264529058116	402.23498628761
7.2344689378758	403.85788933627
7.2424849699399	405.47669444027
7.2505010020040	407.12300429630
7.2585170340681	408.81103386672
7.2665330661323	410.39104780477
7.2745490981964	412.11718667162
7.2825651302605	413.62171682535
7.2905811623246	415.25493041382
7.2985971943888	416.65425738124
7.3066132264529	418.18360382269
7.3146292585170	419.57811158974
7.3226452905812	420.98402026073
7.3306613226453	422.38795669516
7.3386773547094	423.75476866545
7.3466933867735	425.05162228919
7.3547094188377	426.41203044484
7.3627254509018	427.77645326644
7.3707414829659	429.10202221140
7.3787575150301	430.54863238766
7.3867735470942	431.88389028879
7.3947895791583	433.25989733645
7.4028056112224	434.56674492142
7.4108216432866	436.03610487115
7.4188376753507	437.24002204399
7.4268537074148	438.59001319609
7.4348697394790	439.84189789196
7.4428857715431	441.09479340351
7.4509018036072	442.18560481567
7.4589178356713	443.35098717390
7.4669338677355	444.43217540392
7.4749498997996	445.47922280397
7.4829659318637	446.57150344810
7.4909819639279	447.58001242934
7.4989979959920	448.55493868519
7.5070140280561	449.54651193705
7.5150300601202	450.58338398164
7.5230460921844	451.51329420208
7.5310621242485	452.62542713210
7.5390781563126	453.52082490174
7.5470941883768	454.58521348695
7.5551102204409	455.42076281705
7.5631262525050	456.41638316277
7.5711422845691	457.27387030730
7.5791583166333	458.14101934020
7.5871743486974	458.99190977376
7.5951903807615	459.77543232701
7.6032064128257	460.44964255758
7.6112224448898	461.15239809005
7.6192384769539	461.82096149692
7.6272545090180	462.40578810834
7.6352705410822	463.09150720868
7.6432865731463	463.63110422639
7.6513026052104	464.20372911359
7.6593186372745	464.69816461478
7.6673346693387	465.37740619503
7.6753507014028	465.78653484911
7.6833667334669	466.37659815573
7.6913827655311	466.88315218462
7.6993987975952	467.41757843086
7.7074148296593	467.79360483550
7.7154308617234	468.26500179884
7.7234468937876	468.64375311394
7.7314629258517	468.98297121957
7.7394789579158	469.34847166340
7.7474949899800	469.60474108608
7.7555110220441	469.79294037707
7.7635270541082	469.97079771736
7.7715430861723	470.16198539223
7.7795591182365	470.21916422119
7.7875751503006	470.44183393601
7.7955911823647	470.43243913213
7.8036072144289	470.59223524667
7.8116232464930	470.52524984311
7.8196392785571	470.63362997935
7.8276553106212	470.62181754690
7.8356713426854	470.63738020344
7.8436873747495	470.65993163411
7.8517034068136	470.62863910629
7.8597194388778	470.49976650499
7.8677354709419	470.40345786561
7.8757515030060	470.27002840850
7.8837675350701	470.04080606770
7.8917835671343	469.89782802676
7.8997995991984	469.58371722707
7.9078156312625	469.28042580234
7.9158316633267	468.87527970176
7.9238476953908	468.63586416769
7.9318637274549	468.10895720850
7.9398797595190	467.75613154112
7.9478957915832	467.31865377363
7.9559118236473	466.91431841020
7.9639278557114	466.36575331375
7.9719438877756	465.92959969160
7.9799599198397	465.42285024079
7.9879759519038	464.89750944554
7.9959919839679	464.41839258143
8.0040080160321	463.84614588029
8.0120240480962	463.22016380465
8.0200400801603	462.58622749056
8.0280561122244	461.96402541777
8.0360721442886	461.19931773251
8.0440881763527	460.58817419404
8.0521042084168	459.73215439129
8.0601202404810	459.02963251208
8.0681362725451	458.09066177420
8.0761523046092	457.31751051195
8.0841683366733	456.42224202750
8.0921843687375	455.55961206362
8.1002004008016	454.71267623773
8.1082164328657	453.83028389061
8.1162324649299	452.87532412350
8.1242484969940	451.97402710967
8.1322645290581	451.06651248645
8.1402805611222	450.08328473803
8.1482965931864	449.21773208543
8.1563126252505	448.17754018659
8.1643286573146	447.22824479013
8.1723446893788	446.13216719254
8.1803607214429	445.05666521898
8.1883767535070	443.99667885052
8.1963927855711	442.95855820322
8.2044088176353	441.78094846862
8.2124248496994	440.69792637440
8.2204408817635	439.45325813141
8.2284569138277	438.33186275171
8.2364729458918	437.14760354566
8.2444889779559	435.96475745466
8.2525050100200	434.84403018610
8.2605210420842	433.66082136916
8.2685370741483	432.45431204703
8.2765531062124	431.26896812323
8.2845691382766	430.12442347014
8.2925851703407	428.87351533348
8.3006012024048	427.78859845713
8.3086172344689	426.49419805129
8.3166332665331	425.35742023490
8.3246492985972	424.01080398749
8.3326653306613	422.82383245168
8.3406813627255	421.52832745878
8.3486973947896	420.26524469048
8.3567134268537	419.02057891296
8.3647294589178	417.74758845538
8.3727454909820	416.41996104121
8.3807615230461	415.15295717270
8.3887775551102	413.90152051603
8.3967935871743	412.59854462540
8.4048096192385	411.43617052292
8.4128256513026	410.13657763418
8.4208416833667	408.95703972791
8.4288577154309	407.66706183876
8.4368737474950	406.43298857262
8.4448897795591	405.22867343813
8.4529058116232	404.07727055622
8.4609218436874	402.80416062195
8.4689378757515	401.64406526446
8.4769539078156	400.33172484337
8.4849699398798	399.15562175057
8.4929859719439	397.90959019099
8.5010020040080	396.69127928122
8.5090180360721	395.51386163648
8.5170340681363	394.31341747785
8.5250501002004	393.07701050964
8.5330661322645	391.90485541539
8.5410821643287	390.75509122023
8.5490981963928	389.56690587549
8.5571142284569	388.50939323069
8.5651302605210	387.33531248922
8.5731462925852	386.26292557807
8.5811623246493	385.10294669646
8.5891783567134	383.97370280134
8.5971943887776	382.89946483447
8.6052104208417	381.83863308509
8.6132264529058	380.70406242224
8.6212424849699	379.61824990971
8.6292585170341	378.47554221266
8.6372745490982	377.39955768466
8.6452905811623	376.19986541941
8.6533066132265	375.07093703360
8.6613226452906	374.08300536992
8.6693386773547	372.90386643594
8.6773547094188	371.90019843495
8.6853707414830	370.70300754312
8.6933867735471	369.67297146161
8.7014028056112	368.69850231643
8.7094188376754	367.65204881077
8.7174348697395	366.64090469633
8.7254509018036	365.65125669170
8.7334669338677	364.63748734948
8.7414829659319	363.70066482587
8.7494989979960	362.63138857042
8.7575150300601	361.66929920384
8.7655310621242	360.78175928297
8.7735470941884	359.80335304921
8.7815631262525	358.80080280083
8.7895791583166	357.80794645425
8.7975951903808	356.99058837122
8.8056112224449	355.97070480578
8.8136272545090	355.10838434189
8.8216432865731	354.13079514755
8.8296593186373	353.28751623970
8.8376753507014	352.33267244341
8.8456913827655	351.53529419142
8.8537074148297	350.54824448845
8.8617234468938	349.73683662061
8.8697394789579	348.94451259877
8.8777555110220	348.12625969615
8.8857715430862	347.23436792134
8.8937875751503	346.40788596418
8.9018036072144	345.68996239323
8.9098196392786	344.83296410972
8.9178356713427	344.05421155834
8.9258517034068	343.23091041841
8.9338677354709	342.43221378321
8.9418837675351	341.64079964375
8.9498997995992	340.78956183641
8.9579158316633	339.96113693573
8.9659318637275	339.29909142165
8.9739478957916	338.43084440804
8.9819639278557	337.74696987861
8.9899799599198	336.85982904530
8.9979959919840	336.13848470045
9.0060120240481	335.44839820946
9.0140280561122	334.69712252711
9.0220440881764	333.96618675142
9.0300601202405	333.25069681429
9.0380761523046	332.51368885304
9.0460921843687	331.83057038952
9.0541082164329	331.04348511575
9.0621242484970	330.31904116831
9.0701402805611	329.70929986439
9.0781563126253	328.93044068981
9.0861723446894	328.28339605140
9.0941883767535	327.46702301875
9.1022044088176	326.76691386225
9.1102204408818	326.12184842962
9.1182364729459	325.37732225781
9.1262525050100	324.67855826260
9.1342685370741	323.96214337659
9.1422845691383	323.25288240959
9.1503006012024	322.56839467093
9.1583166332665	321.81616880985
9.1663326653307	321.10238697856
9.1743486973948	320.53597558367
9.1823647294589	319.78541458260
9.1903807615230	319.19941186218
9.1983967935872	318.42811233176
9.2064128256513	317.80296726896
9.2144288577154	317.20323327596
9.2224448897796	316.53729772847
9.2304609218437	315.88004097741
9.2384769539078	315.23111637599
9.2464929859719	314.54103841148
9.2545090180361	313.90372567757
9.2625250501002	313.13842284737
9.2705410821643	312.45557166290
9.2785571142285	311.82851175307
9.2865731462926	311.11786706871
9.2945891783567	310.38732570291
9.3026052104208	309.66332007651
9.3106212424850	309.10040126564
9.3186372745491	308.36469442839
9.3266533066132	307.77902302630
9.3346693386774	307.09530679872
9.3426853707415	306.54017802302
9.3507014028056	305.88350070399
9.3587174348697	305.36891748386
9.3667334669339	304.67262366923
9.3747494989980	304.12829783069
9.3827655310621	303.56630587819
9.3907815631263	302.97358316631
9.3987975951904	302.27395348124
9.4068136272545	301.61856013429
9.4148296593186	301.01642098744
9.4228456913828	300.28588575991
9.4308617234469	299.59320921687
9.4388777555110	298.87298826537
9.4468937875751	298.16373918712
9.4549098196393	297.49191686317
9.4629258517034	296.77764058267
9.4709418837675	296.13669055493
9.4789579158317	295.66228657629
9.4869739478958	295.06343176854
9.4949899799599	294.64513321073
9.5030060120240	294.09116061555
9.5110220440882	293.67640691393
9.5190380761523	293.29741069250
9.5270541082164	292.82989165125
9.5350701402806	292.34810640755
9.5430861723447	291.81125416171
9.5511022044088	291.19727801506
9.5591182364729	290.55031035156
9.5671342685371	289.75590995277
9.5751503006012	288.95586694571
9.5831663326653	288.23816266204
9.5911823647295	287.36868080585
9.5991983967936	286.65953156527
9.6072144288577	285.87172772219
9.6152304609218	285.29926446876
9.6232464929860	284.90710848975
9.6312625250501	284.58206909519
9.6392785571142	284.44144485100
9.6472945891784	284.42041004013
9.6553106212425	284.49889169843
9.6633266533066	284.63567348722
9.6713426853707	284.68170960504
9.6793587174349	284.64826261108
9.6873747494990	284.54042202067
9.6953907815631	283.98119613355
9.7034068136273	283.20331425542
9.7114228456914	281.83865290400
9.7194388777555	280.14847013197
9.7274549098196	278.01860829133
9.7354709418838	275.40032642619
9.7434869739479	272.41748304597
9.7515030060120	269.16823222271
9.7595190380762	265.72331389576
9.7675350701403	262.30562179163
9.7755511022044	258.90491592847
9.7835671342685	255.85382773910
9.7915831663327	253.23837726865
9.7995991983968	251.07663744600
9.8076152304609	249.47453834839
9.8156312625251	248.51280626243
9.8236472945892	248.28367372669
9.8316633266533	248.49773909966
9.8396793587174	249.30353536341
9.8476953907816	250.41004249931
9.8557114228457	251.83821578003
9.8637274549098	253.27663961791
9.8717434869739	254.75694348875
9.8797595190381	255.90855617449
9.8877755511022	256.87193228928
9.8957915831663	257.46667624719
9.9038076152305	257.61841393064
9.9118236472946	257.29103731907
9.9198396793587	256.63085443624
9.9278557114228	255.74051690972
9.9358717434870	254.53647339882
9.9438877755511	253.28132708182
9.9519038076152	252.01009591201
9.9599198396794	250.85357534196
9.9679358717435	249.91597853472
9.9759519038076	249.16001695773
9.9839679358717	248.70292140749
9.9919839679359	248.61367916537
10.000000000000	248.60406181252
#Parameters = {C_p=1.77e-12; C_p_add=7e-14; L_s=7e-10; R_s=4.8}
#"Frequency / GHz"	"Total RCS [pw] (C_p=1.77e-12) [Magnitude]"
#-------------------------------------------------------------
6.0000000000000	135.09659151044
6.0080160320641	136.22875465663
6.0160320641283	137.35907691200
6.0240480961924	138.48100879368
6.0320641282565	139.47394129782
6.0400801603206	140.40415650290
6.0480961923848	141.22836979797
6.0561122244489	141.93246878050
6.0641282565130	142.53368517108
6.0721442885772	143.06719049707
6.0801603206413	143.60162509378
6.0881763527054	144.07812323932
6.0961923847695	144.62730889470
6.1042084168337	145.25892464861
6.1122244488978	145.94526329389
6.1202404809619	146.75780838031
6.1282565130261	147.70439994167
6.1362725450902	148.68895462599
6.1442885771543	149.77186110558
6.1523046092184	150.90218056533
6.1603206412826	151.98882296763
6.1683366733467	153.04380555007
6.1763527054108	154.05472332700
6.1843687374749	154.89722326103
6.1923847695391	155.65398946168
6.2004008016032	156.28789309511
6.2084168336673	156.79133291239
6.2164328657315	157.19001270718
6.2244488977956	157.52839283544
6.2324649298597	157.87915815252
6.2404809619238	158.18104082589
6.2484969939880	158.56402320490
6.2565130260521	159.03581460438
6.2645290581162	159.55604989990
6.2725450901804	160.18596073636
6.2805611222445	160.93397833549
6.2885771543086	161.67590745378
6.2965931863727	162.48264144539
6.3046092184369	163.27318925537
6.3126252505010	163.98953515030
6.3206412825651	164.58916544090
6.3286573146293	165.05291140679
6.3366733466934	165.39225335325
6.3446893787575	165.48873967916
6.3527054108216	165.44752011087
6.3607214428858	165.26244613235
6.3687374749499	164.89898128782
6.3767535070140	164.45890253700
6.3847695390782	163.99037489894
6.3927855711423	163.44749726162
6.4008016032064	162.95167875113
6.4088176352705	162.51617951468
6.4168336673347	162.09547282290
6.4248496993988	161.75544668240
6.4328657314629	161.50624742019
6.4408817635271	161.23783588918
6.4488977955912	161.03119526694
6.4569138276553	160.83691321939
6.4649298597194	160.62141038493
6.4729458917836	160.39369585347
6.4809619238477	160.17826941010
6.4889779559118	160.05592607595
6.4969939879760	159.97484741603
6.5050100200401	160.11823289482
6.5130260521042	160.55101408110
6.5210420841683	161.33370108307
6.5290581162325	162.62095694277
6.5370741482966	164.55454470421
6.5450901803607	167.11102784879
6.5531062124248	170.49022388338
6.5611222444890	174.67267181091
6.5691382765531	179.68565742094
6.5771543086172	185.45844903228
6.5851703406814	192.00122527158
6.5931863727455	199.16658612881
6.6012024048096	206.81930320465
6.6092184368737	214.86548254617
6.6172344689379	223.04160282866
6.6252505010020	231.23295991246
6.6332665330661	239.23932182001
6.6412825651303	247.02366045231
6.6492985971944	254.24401721245
6.6573146292585	261.02414328575
6.6653306613226	267.18749468134
6.6733466933868	272.74844153721
6.6813627254509	277.63991445138
6.6893787575150	282.02407406794
6.6973947895792	285.88784436754
6.7054108216433	289.31226203514
6.7134268537074	292.46508751264
6.7214428857715	295.31055001448
6.7294589178357	298.00504028160
6.7374749498998	300.58604186332
6.7454909819639	303.23021681277
6.7535070140281	305.72903762869
6.7615230460922	308.32755471617
6.7695390781563	310.94223078597
6.7775551102204	313.49071755092
6.7855711422846	316.01203828425
6.7935871743487	318.55861896865
6.8016032064128	320.86407305523
6.8096192384770	323.14899375186
6.8176352705411	325.27508190363
6.8256513026052	327.26279324952
6.8336673346693	329.04249535453
6.8416833667335	330.76114000045
6.8496993987976	332.36787423399
6.8577154308617	333.87798436732
6.8657314629259	335.43773738761
6.8737474949900	336.91236783891
6.8817635270541	338.44692561235
6.8897795591182	339.99258642260
6.8977955911824	341.74501753422
