#Parameters = {C_p=2.22e-12; C_p_add=7e-14; L_s=7e-10; R_s=4.8}
#"Frequency / GHz"	"Total RCS [pw] (C_p=2.22e-12) [Magnitude]"
#-------------------------------------------------------------
6.0000000000000	115.78777666836
6.0080160320641	116.51079330119
6.0160320641283	117.32018821439
6.0240480961924	118.20890769021
6.0320641282565	119.03142768861
6.0400801603206	119.81667985415
6.0480961923848	120.58221222069
6.0561122244489	121.38329289465
6.0641282565130	122.25682727185
6.0721442885772	123.16453826730
6.0801603206413	124.07536517544
6.0881763527054	124.88595285680
6.0961923847695	125.72892629917
6.1042084168337	126.64130447922
6.1122244488978	127.59497422923
6.1202404809619	128.58478918546
6.1282565130261	129.57863647060
6.1362725450902	130.49989716046
6.1442885771543	131.48027393156
6.1523046092184	132.54627729266
6.1603206412826	133.65272614217
6.1683366733467	134.80002518227
6.1763527054108	135.98443245346
6.1843687374749	137.13351063077
6.1923847695391	138.38512543394
6.2004008016032	139.73757122768
6.2084168336673	141.17732581712
6.2164328657315	142.67727628038
6.2244488977956	144.24915895337
6.2324649298597	145.94575067422
6.2404809619238	147.71712213925
6.2484969939880	149.67017058737
6.2565130260521	151.79203363122
6.2645290581162	154.02808843740
6.2725450901804	156.43375048249
6.2805611222445	159.04230137055
6.2885771543086	161.75115395300
6.2965931863727	164.65275876346
6.3046092184369	167.68247792282
6.3126252505010	170.80238493344
6.3206412825651	173.96201303997
6.3286573146293	177.11005338466
6.3366733466934	180.18418708347
6.3446893787575	182.99028230330
6.3527054108216	185.57398015952
6.3607214428858	187.90809308396
6.3687374749499	189.89937518038
6.3767535070140	191.59054639746
6.3847695390782	192.95290363807
6.3927855711423	193.88926656344
6.4008016032064	194.56603674076
6.4088176352705	195.07563611704
6.4168336673347	195.41347662812
6.4248496993988	195.66801237347
6.4328657314629	195.83415118132
6.4408817635271	195.80709377192
6.4488977955912	195.76760429539
6.4569138276553	195.76721562120
6.4649298597194	195.82065952481
6.4729458917836	195.90526181957
6.4809619238477	195.97377954674
6.4889779559118	196.06550614532
6.4969939879760	196.09467411616
6.5050100200401	196.25878315565
6.5130260521042	196.53705909157
6.5210420841683	196.82397906771
6.5290581162325	197.10664830623
6.5370741482966	197.41948731622
6.5450901803607	197.67532385462
6.5531062124248	198.08030268234
6.5611222444890	198.56077047882
6.5691382765531	199.07119673762
6.5771543086172	199.51111390335
6.5851703406814	199.96497142404
6.5931863727455	200.44674059490
6.6012024048096	200.99204994960
6.6092184368737	201.65034442252
6.6172344689379	202.25847434721
6.6252505010020	202.83851814280
6.6332665330661	203.37423024669
6.6412825651303	204.03119195400
6.6492985971944	204.65252901809
6.6573146292585	205.39385485705
6.6653306613226	206.09012029393
6.6733466933868	206.75465948764
6.6813627254509	207.35784110231
6.6893787575150	208.05924227613
6.6973947895792	208.80763497093
6.7054108216433	209.56609018360
6.7134268537074	210.32987627809
6.7214428857715	211.00600769626
6.7294589178357	211.69158049121
6.7374749498998	212.41660905867
6.7454909819639	213.26278216138
6.7535070140281	214.00926009331
6.7615230460922	214.77070109171
6.7695390781563	215.50298557272
6.7775551102204	216.21240987850
6.7855711422846	216.98345613655
6.7935871743487	217.85213422320
6.8016032064128	218.60267085693
6.8096192384770	219.37303458547
6.8176352705411	220.10615362979
6.8256513026052	220.87595011568
6.8336673346693	221.65239639810
6.8416833667335	222.49070008523
6.8496993987976	223.28612490165
6.8577154308617	224.01517768723
6.8657314629259	224.78974610172
6.8737474949900	225.54755166428
6.8817635270541	226.36724943796
6.8897795591182	227.15923531923
6.8977955911824	227.99628615495
6.9058116232465	228.67003819449
6.9138276553106	229.43961819416
6.9218436873747	230.22605438246
6.9298597194389	231.06256756895
6.9378757515030	231.82415709713
6.9458917835671	232.59289072103
6.9539078156313	233.31175330119
6.9619238476954	234.04270035402
6.9699398797595	234.86233153087
6.9779559118236	235.65420773429
6.9859719438878	236.41811636305
6.9939879759519	237.12000634762
7.0020040080160	237.88102100354
7.0100200400802	238.56582807787
7.0180360721443	239.35575601855
7.0260521042084	240.15660715751
7.0340681362725	240.86770681712
7.0420841683367	241.54445619226
7.0501002004008	242.28598046547
7.0581162324649	242.95656729966
7.0661322645291	243.73266342650
7.0741482965932	244.48098489281
7.0821643286573	245.18396023327
7.0901803607214	245.80532153025
7.0981963927856	246.48351023982
7.1062124248497	247.19336681427
7.1142284569138	247.89704331609
7.1222444889780	248.63265741002
7.1302605210421	249.25368920598
7.1382765531062	249.87421375957
7.1462925851703	250.48360695402
7.1543086172345	251.22930349953
7.1623246492986	251.83860651714
7.1703406813627	252.50795892577
7.1783567134269	253.09716566354
7.1863727454910	253.70094035931
7.1943887775551	254.26675893309
7.2024048096192	254.92555275276
7.2104208416834	255.54361915457
7.2184368737475	256.11038774369
7.2264529058116	256.67894981897
7.2344689378758	257.21371286483
7.2424849699399	257.76939421578
7.2505010020040	258.35270833516
7.2585170340681	258.93560183093
7.2665330661323	259.40607753486
7.2745490981964	259.95678482457
7.2825651302605	260.40302308982
7.2905811623246	260.98567400954
7.2985971943888	261.44926643348
7.3066132264529	261.97929612758
7.3146292585170	262.39982847249
7.3226452905812	262.83383081888
7.3306613226453	263.30697417278
7.3386773547094	263.79249152428
7.3466933867735	264.22580553303
7.3547094188377	264.65064028883
7.3627254509018	265.03326662365
7.3707414829659	265.38633749256
7.3787575150301	265.83928166515
7.3867735470942	266.23621452077
7.3947895791583	266.63152951122
7.4028056112224	266.93733641149
7.4108216432866	267.32173500504
7.4188376753507	267.57052328983
7.4268537074148	267.95880233860
7.4348697394790	268.31300557063
7.4428857715431	268.65375182397
7.4509018036072	268.87110604807
7.4589178356713	269.14166994708
7.4669338677355	269.40539508627
7.4749498997996	269.69382000701
7.4829659318637	270.01266487031
7.4909819639279	270.24309353770
7.4989979959920	270.41631624663
7.5070140280561	270.59978035183
7.5150300601202	270.84067975777
7.5230460921844	271.03598759571
7.5310621242485	271.31713606983
7.5390781563126	271.42044334093
7.5470941883768	271.59905818570
7.5551102204409	271.66218239677
7.5631262525050	271.86724330874
7.5711422845691	272.01462546547
7.5791583166333	272.15183866222
7.5871743486974	272.25272325872
7.5951903807615	272.31880785321
7.6032064128257	272.36699262547
7.6112224448898	272.48283453190
7.6192384769539	272.59049381907
7.6272545090180	272.61888214636
7.6352705410822	272.67531906168
7.6432865731463	272.65072244410
7.6513026052104	272.68320808808
7.6593186372745	272.69480772027
7.6673346693387	272.79657087212
7.6753507014028	272.69326889558
7.6833667334669	272.66747121196
7.6913827655311	272.61059046278
7.6993987975952	272.61435939156
7.7074148296593	272.54963191632
7.7154308617234	272.52237820409
7.7234468937876	272.41035631186
7.7314629258517	272.27681267966
7.7394789579158	272.20468283044
7.7474949899800	272.12437566917
7.7555110220441	272.02200969143
7.7635270541082	271.88824691905
7.7715430861723	271.73326895956
7.7795591182365	271.51054666063
7.7875751503006	271.42748701210
7.7955911823647	271.24418195020
7.8036072144289	271.14614905087
7.8116232464930	270.87154950479
7.8196392785571	270.66773953878
7.8276553106212	270.41226826263
7.8356713426854	270.21793115456
7.8436873747495	270.05176890670
7.8517034068136	269.83393193011
7.8597194388778	269.52410593804
7.8677354709419	269.22925103900
7.8757515030060	268.95876045244
7.8837675350701	268.69071495301
7.8917835671343	268.49266185537
7.8997995991984	268.17302034074
7.9078156312625	267.83097146927
7.9158316633267	267.44291842934
7.9238476953908	267.19962523582
7.9318637274549	266.83507435625
7.9398797595190	266.56287255872
7.9478957915832	266.19722159362
7.9559118236473	265.81911199411
7.9639278557114	265.37758481199
7.9719438877756	265.04788934075
7.9799599198397	264.70522302594
7.9879759519038	264.32839824057
7.9959919839679	263.93457332610
8.0040080160321	263.47883498787
8.0120240480962	263.03672925450
8.0200400801603	262.64985608497
8.0280561122244	262.29246315283
8.0360721442886	261.82729735213
8.0440881763527	261.41731619013
8.0521042084168	260.88060999759
8.0601202404810	260.48786487164
8.0681362725451	260.01180745614
8.0761523046092	259.62623323079
8.0841683366733	259.12532566675
8.0921843687375	258.60952474490
8.1002004008016	258.12187368877
8.1082164328657	257.66843168112
8.1162324649299	257.20390338242
8.1242484969940	256.74345639618
8.1322645290581	256.22734541969
8.1402805611222	255.65182302360
8.1482965931864	255.18688425388
8.1563126252505	254.68619537789
8.1643286573146	254.25873441922
8.1723446893788	253.71498307990
8.1803607214429	253.14267263171
8.1883767535070	252.58986505637
8.1963927855711	252.11236991804
8.2044088176353	251.61330249121
8.2124248496994	251.16691360217
8.2204408817635	250.57689636895
8.2284569138277	250.01876019922
8.2364729458918	249.44675167485
8.2444889779559	248.93785799613
8.2525050100200	248.49875013967
8.2605210420842	247.99292113580
8.2685370741483	247.41064126000
8.2765531062124	246.81624481593
8.2845691382766	246.28915837285
8.2925851703407	245.77005212372
8.3006012024048	245.36732318203
8.3086172344689	244.80090805136
8.3166332665331	244.27186366757
8.3246492985972	243.62822539788
8.3326653306613	243.14660051587
8.3406813627255	242.66867606436
8.3486973947896	242.20743314512
8.3567134268537	241.69517842928
8.3647294589178	241.11948796756
8.3727454909820	240.53642015774
8.3807615230461	240.06077524493
8.3887775551102	239.63538964746
8.3967935871743	239.14138875297
8.4048096192385	238.64823148362
8.4128256513026	238.04012028948
8.4208416833667	237.54785340123
8.4288577154309	237.06617420944
8.4368737474950	236.63507636117
8.4448897795591	236.15952626825
8.4529058116232	235.63981553212
8.4609218436874	235.04633625092
8.4689378757515	234.59427339254
8.4769539078156	234.12725613095
8.4849699398798	233.73137382547
8.4929859719439	233.21261720486
8.5010020040080	232.64549574998
8.5090180360721	232.12826685270
8.5170340681363	231.68558039626
8.5250501002004	231.27165206549
8.5330661322645	230.84667588598
8.5410821643287	230.33273996519
8.5490981963928	229.74983696565
8.5571142284569	229.30056085570
8.5651302605210	228.87826634185
8.5731462925852	228.53894160145
8.5811623246493	228.06991589228
8.5891783567134	227.52203012314
8.5971943887776	227.00249627138
8.6052104208417	226.59040322724
8.6132264529058	226.23389196249
8.6212424849699	225.89939583263
8.6292585170341	225.42826017805
8.6372745490982	224.91663931600
8.6452905811623	224.36973417533
8.6533066132265	223.98711074482
8.6613226452906	223.76204744605
8.6693386773547	223.36241862923
8.6773547094188	222.93525352449
8.6853707414830	222.33100507255
8.6933867735471	221.90307403247
8.7014028056112	221.63724702199
8.7094188376754	221.35763061134
8.7174348697395	220.98699221848
8.7254509018036	220.48939986378
8.7334669338677	219.96230659088
8.7414829659319	219.60862585681
8.7494989979960	219.30472711054
8.7575150300601	219.04774145125
8.7655310621242	218.68318383874
8.7735470941884	218.14224803261
8.7815631262525	217.63470587011
8.7895791583166	217.30254199407
8.7975951903808	217.17998690611
8.8056112224449	216.84766942979
8.8136272545090	216.41895640976
8.8216432865731	215.83053426237
8.8296593186373	215.43638381867
8.8376753507014	215.16378421936
8.8456913827655	215.03376881847
8.8537074148297	214.62192857875
8.8617234468938	214.10579152570
8.8697394789579	213.57526905774
8.8777555110220	213.21927574974
8.8857715430862	213.01319585315
8.8937875751503	212.81877653667
8.9018036072144	212.45275943848
8.9098196392786	211.80611794735
8.9178356713427	211.27842921791
8.9258517034068	210.99040634384
8.9338677354709	210.88521677770
8.9418837675351	210.64818675390
8.9498997995992	210.06562831692
8.9579158316633	209.34847758666
8.9659318637275	208.92076554404
8.9739478957916	208.68767781742
8.9819639278557	208.65559194009
8.9899799599198	208.22066636620
8.9979959919840	207.52402461303
9.0060120240481	206.79267684558
9.0140280561122	206.35383666105
9.0220440881764	206.27668710975
9.0300601202405	206.16141882507
9.0380761523046	205.59105869256
9.0460921843687	204.67633202057
9.0541082164329	203.80815392452
9.0621242484970	203.47868958330
9.0701402805611	203.54653050737
9.0781563126253	203.24638148901
9.0861723446894	202.39044498678
9.0941883767535	201.09425046734
9.1022044088176	200.22669444951
9.1102204408818	200.07229775468
9.1182364729459	200.05695228815
9.1262525050100	199.44387874723
9.1342685370741	197.92392385459
9.1422845691383	196.18334658387
9.1503006012024	195.16877390552
9.1583166332665	194.94823052066
9.1663326653307	194.58807827029
9.1743486973948	192.98644476816
9.1823647294589	189.90610572405
9.1903807615230	186.81823950047
9.1983967935872	184.71431065586
9.2064128256513	183.28809363169
9.2144288577154	180.29247527085
9.2224448897796	173.96599733824
9.2304609218437	165.65041154818
9.2384769539078	159.94089632166
9.2464929859719	161.87856083204
9.2545090180361	173.01743936858
9.2625250501002	189.39183838835
9.2705410821643	204.11797206194
9.2785571142285	211.70764780855
9.2865731462926	211.56163042413
9.2945891783567	207.67613524181
9.3026052104208	204.82863328603
9.3106212424850	205.02877583154
9.3186372745491	206.51358242425
9.3266533066132	206.84328011623
9.3346693386774	204.91327453747
9.3426853707415	202.26425601808
9.3507014028056	200.76124217085
9.3587174348697	201.09882736266
9.3667334669339	201.79262240231
9.3747494989980	201.48168000491
9.3827655310621	199.83153641265
9.3907815631263	198.03855717161
9.3987975951904	197.31703562620
9.4068136272545	197.74696673265
9.4148296593186	198.17796357900
9.4228456913828	197.48253477271
9.4308617234469	195.97437730972
9.4388777555110	194.70694975291
9.4468937875751	194.47607762534
9.4549098196393	194.92248174938
9.4629258517034	194.94060835775
9.4709418837675	194.02399950847
9.4789579158317	192.72450290923
9.4869739478958	191.82576213644
9.4949899799599	191.91704140363
9.5030060120240	192.20084623056
9.5110220440882	191.97154736222
9.5190380761523	190.95698566059
9.5270541082164	189.76359701392
9.5350701402806	189.25236787833
9.5430861723447	189.45889778234
9.5511022044088	189.64682188735
9.5591182364729	189.15145422360
9.5671342685371	187.99328084797
9.5751503006012	187.01772588306
9.5831663326653	186.84521131240
9.5911823647295	187.07358901471
9.5991983967936	187.10662130169
9.6072144288577	186.31024673932
9.6152304609218	185.20847800481
9.6232464929860	184.52400089171
9.6312625250501	184.49938011457
9.6392785571142	184.75066491322
9.6472945891784	184.51191783141
9.6553106212425	183.60227412609
9.6633266533066	182.57951814928
9.6713426853707	182.07594532101
9.6793587174349	182.20973768739
9.6873747494990	182.41822973493
9.6953907815631	181.90107880301
9.7034068136273	180.93071649629
9.7114228456914	179.98199142502
9.7194388777555	179.77257504523
9.7274549098196	180.03185814200
9.7354709418838	180.00620192283
9.7434869739479	179.31163006877
9.7515030060120	178.27349881826
9.7595190380762	177.57422594320
9.7675350701403	177.58548944465
9.7755511022044	177.76819562432
9.7835671342685	177.54878955077
9.7915831663327	176.70620133905
9.7995991983968	175.70369745423
9.8076152304609	175.22808566081
9.8156312625251	175.36767249457
9.8236472945892	175.58100561742
9.8316633266533	175.08389454017
9.8396793587174	174.11112276392
9.8476953907816	173.21226634242
9.8557114228457	173.03329097137
9.8637274549098	173.25918775433
9.8717434869739	173.29768074221
9.8797595190381	172.54800104692
9.8877755511022	171.51186856271
9.8957915831663	170.85760308559
9.9038076152305	170.88766328062
9.9118236472946	171.12812818365
9.9198396793587	170.91603902249
9.9278557114228	170.07013317207
9.9358717434870	169.03066959111
9.9438877755511	168.60876208911
9.9519038076152	168.81720573800
9.9599198396794	169.02287144351
9.9679358717435	168.58220097998
9.9759519038076	167.51180514923
9.9839679358717	166.60705886159
9.9919839679359	166.49709181851
10.000000000000	166.79953122924
#Parameters = {C_p=1.77e-12; C_p_add=7e-14; L_s=7e-10; R_s=4.8}
#"Frequency / GHz"	"Total RCS [pw] (C_p=1.77e-12) [Magnitude]"
#-------------------------------------------------------------
6.0000000000000	114.96431689250
6.0080160320641	115.71896440404
6.0160320641283	116.39594325631
6.0240480961924	117.06235311888
6.0320641282565	117.73652405758
6.0400801603206	118.51912399179
6.0480961923848	119.33587093280
6.0561122244489	120.08894654661
6.0641282565130	120.76447518664
6.0721442885772	121.42748462644
6.0801603206413	122.18373467466
6.0881763527054	122.95776757044
6.0961923847695	123.76824722187
6.1042084168337	124.52859522072
6.1122244488978	125.20094606694
6.1202404809619	125.89297023712
6.1282565130261	126.67498323944
6.1362725450902	127.46082747928
6.1442885771543	128.26301348040
6.1523046092184	129.01804813504
6.1603206412826	129.70015862891
6.1683366733467	130.41456545788
6.1763527054108	131.22062958940
6.1843687374749	132.01065978975
6.1923847695391	132.81080702008
6.2004008016032	133.56121890534
6.2084168336673	134.27886323937
6.2164328657315	135.01882627158
6.2244488977956	135.81746268060
6.2324649298597	136.67398641995
6.2404809619238	137.45535613004
6.2484969939880	138.22968014578
6.2565130260521	139.01385220630
6.2645290581162	139.80792943645
6.2725450901804	140.66847330001
6.2805611222445	141.58921210076
6.2885771543086	142.44576240223
6.2965931863727	143.33639126473
6.3046092184369	144.25781127700
6.3126252505010	145.23860025410
6.3206412825651	146.28091355518
6.3286573146293	147.38910544622
6.3366733466934	148.57988118980
6.3446893787575	149.78333636216
6.3527054108216	151.11541725682
6.3607214428858	152.59898196950
6.3687374749499	154.18224041139
6.3767535070140	155.94080955638
6.3847695390782	157.89421554243
6.3927855711423	159.98715197375
6.4008016032064	162.31691859282
6.4088176352705	164.88302668705
6.4168336673347	167.61543291623
6.4248496993988	170.57634863557
6.4328657314629	173.77055469496
6.4408817635271	177.06194464434
6.4488977955912	180.48183120282
6.4569138276553	183.90292396065
6.4649298597194	187.22443000129
6.4729458917836	190.40151934731
6.4809619238477	193.41687492411
6.4889779559118	196.27026219752
6.4969939879760	198.76374611252
6.5050100200401	200.96178182960
6.5130260521042	202.83335341409
6.5210420841683	204.37483972689
6.5290581162325	205.72220556842
6.5370741482966	206.95324505399
6.5450901803607	207.91379070528
6.5531062124248	208.73354349704
6.5611222444890	209.36875597191
6.5691382765531	209.90841881293
6.5771543086172	210.38913151567
6.5851703406814	210.91241285384
6.5931863727455	211.39449571251
6.6012024048096	211.78063348310
6.6092184368737	212.15328040379
6.6172344689379	212.47264449378
6.6252505010020	212.86533532756
6.6332665330661	213.28919113665
6.6412825651303	213.79824283271
6.6492985971944	214.14766670495
6.6573146292585	214.54559875987
6.6653306613226	214.94775098512
6.6733466933868	215.43859832073
6.6813627254509	215.93364772797
6.6893787575150	216.47594885511
6.6973947895792	216.95772537178
6.7054108216433	217.40764736561
6.7134268537074	217.94069246523
6.7214428857715	218.49964994774
6.7294589178357	219.10890978630
6.7374749498998	219.68476216948
6.7454909819639	220.28859660400
6.7535070140281	220.77686764263
6.7615230460922	221.37472708493
6.7695390781563	222.04351187303
6.7775551102204	222.69768602268
6.7855711422846	223.32698558982
6.7935871743487	223.97588210570
6.8016032064128	224.51973690775
6.8096192384770	225.18611687825
6.8176352705411	225.89344318906
6.8256513026052	226.61630979269
6.8336673346693	227.25151198827
6.8416833667335	227.89123090772
6.8496993987976	228.52989057022
6.8577154308617	229.20266819242
6.8657314629259	229.97439645504
6.8737474949900	230.68111699722
6.8817635270541	231.35857502095
6.8897795591182	231.97464220744
6.8977955911824	232.70117338010
