#Parameters = {C_p=2.22e-12; C_p_add=7e-14; L_s=7e-10; R_s=4.8}
#"Frequency / GHz"	"Total RCS [pw] (C_p=2.22e-12) [Magnitude]"
#-------------------------------------------------------------
6.0000000000000	80.229727027833
6.0080160320641	81.331017339675
6.0160320641283	82.524788593465
6.0240480961924	83.802237221930
6.0320641282565	85.070647785537
6.0400801603206	86.384630654896
6.0480961923848	87.783873205016
6.0561122244489	89.287864724483
6.0641282565130	90.875030033624
6.0721442885772	92.510054747932
6.0801603206413	94.233466788196
6.0881763527054	96.038346496308
6.0961923847695	98.019017060615
6.1042084168337	100.13378855560
6.1122244488978	102.32024765011
6.1202404809619	104.63402110077
6.1282565130261	107.15295558748
6.1362725450902	109.84610844723
6.1442885771543	112.75579146785
6.1523046092184	115.84194951419
6.1603206412826	119.09369739582
6.1683366733467	122.61404852268
6.1763527054108	126.45580512706
6.1843687374749	130.50640563956
6.1923847695391	134.80889959994
6.2004008016032	139.33502363061
6.2084168336673	144.10361105838
6.2164328657315	149.08860886750
6.2244488977956	154.19910305991
6.2324649298597	159.31421826133
6.2404809619238	164.19579402870
6.2484969939880	168.79509181993
6.2565130260521	172.89232141596
6.2645290581162	176.13478526171
6.2725450901804	178.26319358440
6.2805611222445	179.05769074251
6.2885771543086	178.29039764187
6.2965931863727	176.06302067236
6.3046092184369	172.39888391460
6.3126252505010	167.43696934596
6.3206412825651	161.44965940668
6.3286573146293	154.82906826121
6.3366733466934	147.98553083885
6.3446893787575	141.12764990439
6.3527054108216	134.53396503250
6.3607214428858	128.32345059702
6.3687374749499	122.56145955567
6.3767535070140	117.38473837374
6.3847695390782	112.82046634543
6.3927855711423	108.76355421474
6.4008016032064	105.20742569597
6.4088176352705	102.10780956229
6.4168336673347	99.410208384706
6.4248496993988	97.126607263424
6.4328657314629	95.199975330010
6.4408817635271	93.507834458936
6.4488977955912	92.069834473638
6.4569138276553	90.866175754282
6.4649298597194	89.872179426127
6.4729458917836	89.051675551337
6.4809619238477	88.358543235506
6.4889779559118	87.799674997359
6.4969939879760	87.323090552262
6.5050100200401	86.990748963327
6.5130260521042	86.756639092380
6.5210420841683	86.562003086559
6.5290581162325	86.419438740056
6.5370741482966	86.366773832976
6.5450901803607	86.349253234309
6.5531062124248	86.410079904065
6.5611222444890	86.487592599031
6.5691382765531	86.586807189413
6.5771543086172	86.709076682050
6.5851703406814	86.897370838234
6.5931863727455	87.110501101796
6.6012024048096	87.319857786716
6.6092184368737	87.556395327940
6.6172344689379	87.800083798044
6.6252505010020	88.085419773939
6.6332665330661	88.374697358698
6.6412825651303	88.692290297046
6.6492985971944	88.963116871054
6.6573146292585	89.291571187723
6.6653306613226	89.636828959359
6.6733466933868	89.994238493593
6.6813627254509	90.317179783467
6.6893787575150	90.660810395923
6.6973947895792	91.018177609277
6.7054108216433	91.393093245326
6.7134268537074	91.785046572405
6.7214428857715	92.143526762342
6.7294589178357	92.504032502055
6.7374749498998	92.878882626375
6.7454909819639	93.300498812141
6.7535070140281	93.673153426461
6.7615230460922	94.056724651804
6.7695390781563	94.445416715499
6.7775551102204	94.835464078553
6.7855711422846	95.240589207862
6.7935871743487	95.662254899899
6.8016032064128	96.025660274934
6.8096192384770	96.423811533991
6.8176352705411	96.835416694968
6.8256513026052	97.256782313478
6.8336673346693	97.644819061568
6.8416833667335	98.037679564852
6.8496993987976	98.434550104050
6.8577154308617	98.840781909088
6.8657314629259	99.274251231255
6.8737474949900	99.666301728753
6.8817635270541	100.05508780002
6.8897795591182	100.44066598433
6.8977955911824	100.88252395667
6.9058116232465	101.26852727991
6.9138276553106	101.67655242864
6.9218436873747	102.06341488734
6.9298597194389	102.47051794437
6.9378757515030	102.86546719711
6.9458917835671	103.27998076363
6.9539078156313	103.66708334603
6.9619238476954	104.04554092548
6.9699398797595	104.45719779448
6.9779559118236	104.85956004139
6.9859719438878	105.25410757258
6.9939879759519	105.62487539844
7.0020040080160	106.02703358897
7.0100200400802	106.39646943428
7.0180360721443	106.80248126578
7.0260521042084	107.20011547800
7.0340681362725	107.55988247837
7.0420841683367	107.92508604012
7.0501002004008	108.33484924902
7.0581162324649	108.70008978017
7.0661322645291	109.08335674260
7.0741482965932	109.44634961414
7.0821643286573	109.81567660558
7.0901803607214	110.17784700853
7.0981963927856	110.55937861731
7.1062124248497	110.92028734606
7.1142284569138	111.25893474641
7.1222444889780	111.63290876220
7.1302605210421	111.99043054100
7.1382765531062	112.35262188678
7.1462925851703	112.68099005562
7.1543086172345	113.04593496019
7.1623246492986	113.35896479019
7.1703406813627	113.72754969577
7.1783567134269	114.07240364633
7.1863727454910	114.40826411384
7.1943887775551	114.70832176607
7.2024048096192	115.04945934945
7.2104208416834	115.38595334187
7.2184368737475	115.70864017417
7.2264529058116	116.03144248062
7.2344689378758	116.33462489657
7.2424849699399	116.64509749029
7.2505010020040	116.96456262099
7.2585170340681	117.28153292562
7.2665330661323	117.55361646400
7.2745490981964	117.87641859898
7.2825651302605	118.15671458308
7.2905811623246	118.48479402527
7.2985971943888	118.73981412466
7.3066132264529	119.02945320194
7.3146292585170	119.29628980247
7.3226452905812	119.58766390066
7.3306613226453	119.88083376892
7.3386773547094	120.14893087835
7.3466933867735	120.38784049633
7.3547094188377	120.65329371482
7.3627254509018	120.92821253648
7.3707414829659	121.18191538216
7.3787575150301	121.44747519062
7.3867735470942	121.67297338154
7.3947895791583	121.92023647270
7.4028056112224	122.15799581101
7.4108216432866	122.43404954290
7.4188376753507	122.62314897662
7.4268537074148	122.85853839711
7.4348697394790	123.08857799363
7.4428857715431	123.33501259791
7.4509018036072	123.53294234804
7.4589178356713	123.74559139765
7.4669338677355	123.94506923902
7.4749498997996	124.15615622689
7.4829659318637	124.38719819573
7.4909819639279	124.58228710011
7.4989979959920	124.75552752399
7.5070140280561	124.93941188995
7.5150300601202	125.14840060091
7.5230460921844	125.32527881501
7.5310621242485	125.53390750438
7.5390781563126	125.67227869826
7.5470941883768	125.86835810515
7.5551102204409	126.01732118508
7.5631262525050	126.21012150969
7.5711422845691	126.35381200570
7.5791583166333	126.50167034709
7.5871743486974	126.66700325004
7.5951903807615	126.83388817415
7.6032064128257	126.97127363893
7.6112224448898	127.10692427092
7.6192384769539	127.23862550740
7.6272545090180	127.36780871731
7.6352705410822	127.53708926239
7.6432865731463	127.65567478620
7.6513026052104	127.76858604829
7.6593186372745	127.86218944996
7.6673346693387	128.02265543457
7.6753507014028	128.11285899324
7.6833667334669	128.23849555967
7.6913827655311	128.32834604331
7.6993987975952	128.43572368516
7.7074148296593	128.52021800593
7.7154308617234	128.63745288338
7.7234468937876	128.71898736743
7.7314629258517	128.78744029785
7.7394789579158	128.88227025556
7.7474949899800	128.97152026533
7.7555110220441	129.04595503665
7.7635270541082	129.10673515116
7.7715430861723	129.17008744013
7.7795591182365	129.21560773238
7.7875751503006	129.32290952587
7.7955911823647	129.36009452449
7.8036072144289	129.42634288751
7.8116232464930	129.42885515264
7.8196392785571	129.49650924321
7.8276553106212	129.54199991632
7.8356713426854	129.58440485404
7.8436873747495	129.61412283807
7.8517034068136	129.63561143843
7.8597194388778	129.65406634161
7.8677354709419	129.69394547784
7.8757515030060	129.71526640164
7.8837675350701	129.70293643089
7.8917835671343	129.73031446432
7.8997995991984	129.73690802348
7.9078156312625	129.75497295705
7.9158316633267	129.73212414596
7.9238476953908	129.74834402699
7.9318637274549	129.70105157878
7.9398797595190	129.72220128430
7.9478957915832	129.71767064317
7.9559118236473	129.70275599595
7.9639278557114	129.64139584843
7.9719438877756	129.62806561758
7.9799599198397	129.61278412177
7.9879759519038	129.58541408461
7.9959919839679	129.55359131287
8.0040080160321	129.49818324256
8.0120240480962	129.45305746442
8.0200400801603	129.42397816449
8.0280561122244	129.39164092716
8.0360721442886	129.30658950437
8.0440881763527	129.27527268267
8.0521042084168	129.20319095949
8.0601202404810	129.18757722304
8.0681362725451	129.09136830812
8.0761523046092	129.02786939324
8.0841683366733	128.94134139889
8.0921843687375	128.88816505100
8.1002004008016	128.84146067112
8.1082164328657	128.76348025460
8.1162324649299	128.65124871298
8.1242484969940	128.57026922963
8.1322645290581	128.51019210139
8.1402805611222	128.42661793604
8.1482965931864	128.35531729374
8.1563126252505	128.23014958169
8.1643286573146	128.15585152011
8.1723446893788	128.06429725113
8.1803607214429	127.97301161540
8.1883767535070	127.86687118444
8.1963927855711	127.77009889433
8.2044088176353	127.66241011822
8.2124248496994	127.59999354094
8.2204408817635	127.47549613168
8.2284569138277	127.36370243928
8.2364729458918	127.23922867458
8.2444889779559	127.14251809651
8.2525050100200	127.07177987350
8.2605210420842	126.95839992237
8.2685370741483	126.81586401538
8.2765531062124	126.69248568320
8.2845691382766	126.61035649277
8.2925851703407	126.49986204105
8.3006012024048	126.41179018472
8.3086172344689	126.24837803619
8.3166332665331	126.15586084836
8.3246492985972	126.03321293381
8.3326653306613	125.95473021183
8.3406813627255	125.81487429445
8.3486973947896	125.67793775549
8.3567134268537	125.57719434098
8.3647294589178	125.49381965526
8.3727454909820	125.37773771428
8.3807615230461	125.24417628069
8.3887775551102	125.11316617250
8.3967935871743	124.99976759849
8.4048096192385	124.94573375654
8.4128256513026	124.82138508261
8.4208416833667	124.69770883294
8.4288577154309	124.54818035047
8.4368737474950	124.45548042938
8.4448897795591	124.38315208881
8.4529058116232	124.29164563938
8.4609218436874	124.13257982216
8.4689378757515	124.03065520946
8.4769539078156	123.92608135616
8.4849699398798	123.86539094805
8.4929859719439	123.73818823670
8.5010020040080	123.59399392259
8.5090180360721	123.49410804327
8.5170340681363	123.42847551010
8.5250501002004	123.33651720806
8.5330661322645	123.20890358358
8.5410821643287	123.06797658889
8.5490981963928	122.95621600980
8.5571142284569	122.92192844979
8.5651302605210	122.82184782143
8.5731462925852	122.69421532589
8.5811623246493	122.53412615520
8.5891783567134	122.43901357741
8.5971943887776	122.39534018202
8.6052104208417	122.31543220456
8.6132264529058	122.15592944772
8.6212424849699	122.02540120231
8.6292585170341	121.94430754711
8.6372745490982	121.90794244192
8.6452905811623	121.77475889515
8.6533066132265	121.60894582521
8.6613226452906	121.51831729995
8.6693386773547	121.43563442161
8.6773547094188	121.41363700390
8.6853707414830	121.25074078143
8.6933867735471	121.09097656266
8.7014028056112	120.99640722347
8.7094188376754	120.94925412539
8.7174348697395	120.89537770227
8.7254509018036	120.75658139506
8.7334669338677	120.57346081028
8.7414829659319	120.48690557981
8.7494989979960	120.42879020332
8.7575150300601	120.36474767342
8.7655310621242	120.22425644822
8.7735470941884	120.03909264079
8.7815631262525	119.94237034147
8.7895791583166	119.91238230333
8.7975951903808	119.86933395250
8.8056112224449	119.64707856485
8.8136272545090	119.48850466887
8.8216432865731	119.40824194518
8.8296593186373	119.41768318361
8.8376753507014	119.27962759816
8.8456913827655	119.07890094039
8.8537074148297	118.85865779038
8.8617234468938	118.83685667782
8.8697394789579	118.84022755443
8.8777555110220	118.68679080352
8.8857715430862	118.39851027527
8.8937875751503	118.22499683030
8.9018036072144	118.25069795087
8.9098196392786	118.21171354613
8.9178356713427	118.00838967062
8.9258517034068	117.69642218820
8.9338677354709	117.54323812525
8.9418837675351	117.57187894808
8.9498997995992	117.50871054635
8.9579158316633	117.20853459589
8.9659318637275	116.89603531437
8.9739478957916	116.73453743022
8.9819639278557	116.82934086899
8.9899799599198	116.70733919541
8.9979959919840	116.32863881888
9.0060120240481	115.92921317505
9.0140280561122	115.83097758031
9.0220440881764	115.95875511570
9.0300601202405	115.84746176611
9.0380761523046	115.31747454885
9.0460921843687	114.82244975822
9.0541082164329	114.78500436691
9.0621242484970	115.10194188889
9.0701402805611	115.14962701009
9.0781563126253	114.58401083249
9.0861723446894	114.13807767223
9.0941883767535	114.68026378356
9.1022044088176	116.82038316510
9.1102204408818	120.49425276689
9.1182364729459	125.47049216357
9.1262525050100	131.42740762635
9.1342685370741	137.05523542875
9.1422845691383	140.08750886946
9.1503006012024	138.75115193842
9.1583166332665	133.57476769720
9.1663326653307	127.55296443895
9.1743486973948	123.70254259916
9.1823647294589	122.49201385920
9.1903807615230	122.30605169369
9.1983967935872	121.22663460613
9.2064128256513	119.40464430608
9.2144288577154	118.07336009199
9.2224448897796	117.83023195960
9.2304609218437	117.95515935214
9.2384769539078	117.45973243179
9.2464929859719	116.39772628515
9.2545090180361	115.67483342819
9.2625250501002	115.61634422185
9.2705410821643	115.72499534274
9.2785571142285	115.32763868847
9.2865731462926	114.53148831532
9.2945891783567	114.04126074691
9.3026052104208	114.07103662850
9.3106212424850	114.15430563057
9.3186372745491	113.69947780816
9.3266533066132	113.06469894739
9.3346693386774	112.71861608323
9.3426853707415	112.80833542574
9.3507014028056	112.75537906753
9.3587174348697	112.33164403235
9.3667334669339	111.72459734487
9.3747494989980	111.51797547744
9.3827655310621	111.60204650290
9.3907815631263	111.50448440087
9.3987975951904	111.00826921839
9.4068136272545	110.51740384898
9.4148296593186	110.40348129516
9.4228456913828	110.44846005774
9.4308617234469	110.28134775078
9.4388777555110	109.79296416181
9.4468937875751	109.37264184924
9.4549098196393	109.29755895730
9.4629258517034	109.30869535877
9.4709418837675	109.06040977216
9.4789579158317	108.60792635172
9.4869739478958	108.23119535898
9.4949899799599	108.22202641971
9.5030060120240	108.17972327403
9.5110220440882	107.88609530262
9.5190380761523	107.42358928647
9.5270541082164	107.13334259393
9.5350701402806	107.13312071131
9.5430861723447	107.08174240488
9.5511022044088	106.72197145565
9.5591182364729	106.26693293620
9.5671342685371	106.02683821375
9.5751503006012	106.03734526783
9.5831663326653	105.96551736087
9.5911823647295	105.54214772072
9.5991983967936	105.13112714029
9.6072144288577	104.94223753397
9.6152304609218	104.96805374328
9.6232464929860	104.82568828750
9.6312625250501	104.38057861009
9.6392785571142	103.99309990006
9.6472945891784	103.89334907200
9.6553106212425	103.90376123165
9.6633266533066	103.68159394471
9.6713426853707	103.20499028895
9.6793587174349	102.85592971123
9.6873747494990	102.84484219728
9.6953907815631	102.80611262264
9.7034068136273	102.54304652182
9.7114228456914	102.03915099423
9.7194388777555	101.76652121485
9.7274549098196	101.77566474120
9.7354709418838	101.72220521600
9.7434869739479	101.37338150173
9.7515030060120	100.91710221418
9.7595190380762	100.69012999021
9.7675350701403	100.72371494398
9.7755511022044	100.59813284465
9.7835671342685	100.20122079260
9.7915831663327	99.781275954284
9.7995991983968	99.625392863074
9.8076152304609	99.646733694661
9.8156312625251	99.480879136846
9.8236472945892	99.069423539354
9.8316633266533	98.645760633320
9.8396793587174	98.574929125616
9.8476953907816	98.592959737935
9.8557114228457	98.386526218860
9.8637274549098	97.891788874137
9.8717434869739	97.560658083713
9.8797595190381	97.500372000189
9.8877755511022	97.525297625097
9.8957915831663	97.247290351928
9.9038076152305	96.755616678772
9.9118236472946	96.447328113639
9.9198396793587	96.470123327341
9.9278557114228	96.477491555932
9.9358717434870	96.103044229528
9.9438877755511	95.616203120628
9.9519038076152	95.397521593929
9.9599198396794	95.462533593467
9.9679358717435	95.399577640499
9.9759519038076	94.954333264736
9.9839679358717	94.472393745647
9.9919839679359	94.368541769766
10.000000000000	94.439997959265
#Parameters = {C_p=1.77e-12; C_p_add=7e-14; L_s=7e-10; R_s=4.8}
#"Frequency / GHz"	"Total RCS [pw] (C_p=1.77e-12) [Magnitude]"
#-------------------------------------------------------------
6.0000000000000	73.772311271196
6.0080160320641	74.438193829888
6.0160320641283	75.154546666018
6.0240480961924	75.982899604166
6.0320641282565	76.815279250600
6.0400801603206	77.613284553510
6.0480961923848	78.388706273124
6.0561122244489	79.222842246263
6.0641282565130	80.149202338826
6.0721442885772	81.095063042905
6.0801603206413	82.018917471333
6.0881763527054	82.905509378539
6.0961923847695	83.898234188261
6.1042084168337	84.991856135901
6.1122244488978	86.081309335480
6.1202404809619	87.148073925866
6.1282565130261	88.260497792346
6.1362725450902	89.445130704279
6.1442885771543	90.747722618909
6.1523046092184	92.080400752979
6.1603206412826	93.383823756009
6.1683366733467	94.756470643932
6.1763527054108	96.284301171680
6.1843687374749	97.885685452477
6.1923847695391	99.552108445821
6.2004008016032	101.25315787509
6.2084168336673	103.05477133930
6.2164328657315	105.01846285870
6.2244488977956	107.12689938225
6.2324649298597	109.34452836200
6.2404809619238	111.61046967761
6.2484969939880	114.07124462311
6.2565130260521	116.76677824501
6.2645290581162	119.63075339147
6.2725450901804	122.64890672900
6.2805611222445	125.86037684063
6.2885771543086	129.25812020312
6.2965931863727	132.96867755715
6.3046092184369	136.91665656167
6.3126252505010	141.03322249116
6.3206412825651	145.30024194944
6.3286573146293	149.75982042447
6.3366733466934	154.40796626547
6.3446893787575	159.03310083740
6.3527054108216	163.54651597353
6.3607214428858	167.78619862466
6.3687374749499	171.52441327867
6.3767535070140	174.63011094121
6.3847695390782	176.84302984865
6.3927855711423	177.81350970559
6.4008016032064	177.45290127251
6.4088176352705	175.69984910859
6.4168336673347	172.53568702668
6.4248496993988	168.17697800854
6.4328657314629	162.85883931050
6.4408817635271	156.78377054793
6.4488977955912	150.36996600207
6.4569138276553	143.89351952440
6.4649298597194	137.58492486917
6.4729458917836	131.62172855429
6.4809619238477	126.10967553208
6.4889779559118	121.12760749440
6.4969939879760	116.61893431877
6.5050100200401	112.67234999664
6.5130260521042	109.24753359571
6.5210420841683	106.25766404897
6.5290581162325	103.66674037259
6.5370741482966	101.45326099891
6.5450901803607	99.531171040386
6.5531062124248	97.950946261003
6.5611222444890	96.623077917754
6.5691382765531	95.492823726456
6.5771543086172	94.514587802041
6.5851703406814	93.730914107441
6.5931863727455	93.116518733516
6.6012024048096	92.624584780128
6.6092184368737	92.239985136070
6.6172344689379	91.908230921614
6.6252505010020	91.681041252082
6.6332665330661	91.543896595271
6.6412825651303	91.508626546139
6.6492985971944	91.452840481423
6.6573146292585	91.464907179855
6.6653306613226	91.528072946048
6.6733466933868	91.663415747097
6.6813627254509	91.806320854411
6.6893787575150	91.972068476709
6.6973947895792	92.144426710192
6.7054108216433	92.358770269350
6.7134268537074	92.637099991000
6.7214428857715	92.905761489819
6.7294589178357	93.163797224995
6.7374749498998	93.423740984765
6.7454909819639	93.753242426165
6.7535070140281	94.071894881461
6.7615230460922	94.412852771196
6.7695390781563	94.738133163206
6.7775551102204	95.053224701411
6.7855711422846	95.406540919817
6.7935871743487	95.808869870551
6.8016032064128	96.153808217132
6.8096192384770	96.509330778436
6.8176352705411	96.869607574809
6.8256513026052	97.265206391154
6.8336673346693	97.653390261060
6.8416833667335	98.039769972821
6.8496993987976	98.404276449027
6.8577154308617	98.775198186236
6.8657314629259	99.200077009289
6.8737474949900	99.603512854549
6.8817635270541	99.989932894882
6.8897795591182	100.34907433210
6.8977955911824	100.76690963706
